Time (s),System Output,ControllerOutput
0,9.88087,0
0.01,12.7487,0.098789
0.02,15.2623,0.226231
0.03,17.4491,0.378778
0.04,19.335,0.553158
0.05,20,0.746358
0.06,20,0.946169
0.07,20,1.14594
0.08,20,1.34567
0.09,20,1.54536
0.1,20,1.74501
0.11,20,1.94462
0.12,20,2.14419
0.13,20,2.34373
0.14,20,2.54322
0.15,20,2.74267
0.16,20,2.94208
0.17,20,3.14145
0.18,20,3.34078
0.19,20,3.54008
0.2,20,3.73933
0.21,20,3.93854
0.22,20,4.13771
0.23,20,4.33684
0.24,20,4.53594
0.25,20,4.73499
0.26,19.9712,4.934
0.27,19.7642,5.13269
0.28,19.5006,5.32926
0.29,19.1874,5.52316
0.3,18.8312,5.7139
0.31,18.438,5.90103
0.32,18.0132,6.08419
0.33,17.5619,6.26307
0.34,17.0887,6.4374
0.35,16.5979,6.60697
0.36,16.0932,6.77159
0.37,15.5782,6.93114
0.38,15.0561,7.0855
0.39,14.5296,7.23462
0.4,14.0014,7.37844
0.41,13.4738,7.51695
0.42,12.9487,7.65016
0.43,12.4281,7.77809
0.44,11.9136,7.90079
0.45,11.4066,8.01832
0.46,10.9083,8.13076
0.47,10.4198,8.23819
0.48,9.9421,8.34072
0.49,9.47587,8.43846
0.5,9.02181,8.53151
0.51,8.58044,8.62001
0.52,8.15215,8.70407
0.53,7.73737,8.78383
0.54,7.33625,8.85944
0.55,6.94898,8.93101
0.56,6.57565,8.9987
0.57,6.21629,9.06264
0.58,5.87084,9.12298
0.59,5.53924,9.17986
0.6,5.22131,9.2334
0.61,4.91692,9.28376
0.62,4.62587,9.33106
0.63,4.34789,9.37544
0.64,4.08269,9.41704
0.65,3.83001,9.45597
0.66,3.58953,9.49238
0.67,3.36092,9.52637
0.68,3.14383,9.55806
0.69,2.93791,9.58758
0.7,2.74282,9.61504
0.71,2.55821,9.64054
0.72,2.38369,9.66419
0.73,2.21888,9.68609
0.74,2.06344,9.70634
0.75,1.91698,9.72502
0.76,1.77916,9.74225
0.77,1.64958,9.75809
0.78,1.52791,9.77263
0.79,1.41378,9.78595
0.8,1.30691,9.79813
0.81,1.20691,9.80923
0.82,1.11343,9.81934
0.83,1.02619,9.8285
0.84,0.944891,9.8368
0.85,0.869215,9.84428
0.86,0.798867,9.851
0.87,0.733565,9.85702
0.88,0.673034,9.86238
0.89,0.617009,9.86714
0.9,0.565254,9.87133
0.91,0.517528,9.87501
0.92,0.473586,9.87821
0.93,0.433182,9.88097
0.94,0.396125,9.88332
0.95,0.362234,9.88531
0.96,0.331245,9.88695
0.97,0.303017,9.88828
0.98,0.277371,9.88934
0.99,0.254133,9.89013
1,0.233132,9.89069
1.01,0.21423,9.89105
1.02,0.197251,9.89121
1.03,0.182082,9.8912
1.04,0.168591,9.89104
1.05,0.156666,9.89075
1.06,0.146204,9.89034
1.07,0.137053,9.88982
1.08,0.129118,9.88922
1.09,0.122308,9.88853
1.1,0.11651,9.88778
1.11,0.111677,9.88696
1.12,0.107696,9.8861
1.13,0.104521,9.8852
1.14,0.102067,9.88427
1.15,0.100251,9.88331
1.16,0.0990228,9.88234
1.17,0.0983195,9.88135
1.18,0.0981301,9.88036
1.19,0.0983619,9.87936
1.2,0.0989581,9.87837
1.21,0.0999104,9.87739
1.22,0.101157,9.87641
1.23,0.102687,9.87545
1.24,0.104437,9.8745
1.25,0.106369,9.87357
1.26,0.108458,9.87265
1.27,0.11069,9.87176
1.28,0.113081,9.8709
1.29,0.11556,9.87005
1.3,0.118109,9.86924
1.31,0.12069,9.86844
1.32,0.123336,9.86768
1.33,0.125984,9.86693
1.34,0.128677,9.86622
1.35,0.131358,9.86553
1.36,0.134023,9.86487
1.37,0.136667,9.86424
1.38,0.139288,9.86364
1.39,0.141885,9.86306
1.4,0.144428,9.8625
1.41,0.146903,9.86197
1.42,0.149353,9.86147
1.43,0.151752,9.86099
1.44,0.154081,9.86053
1.45,0.156361,9.8601
1.46,0.158572,9.8597
1.47,0.160707,9.85931
1.48,0.162759,9.85894
1.49,0.164753,9.8586
1.5,0.166677,9.85828
1.51,0.168522,9.85797
1.52,0.170286,9.85768
1.53,0.171993,9.85741
1.54,0.173604,9.85716
1.55,0.175179,9.85693
1.56,0.176697,9.85671
1.57,0.178147,9.8565
1.58,0.179523,9.85631
1.59,0.180821,9.85614
1.6,0.182067,9.85597
1.61,0.183249,9.85582
1.62,0.184388,9.85568
1.63,0.18544,9.85556
1.64,0.186436,9.85544
1.65,0.187395,9.85533
1.66,0.188299,9.85524
1.67,0.189139,9.85515
1.68,0.189937,9.85507
1.69,0.190707,9.85499
1.7,0.191429,9.85493
1.71,0.192091,9.85487
1.72,0.192714,9.85482
1.73,0.193313,9.85478
1.74,0.193865,9.85474
1.75,0.194388,9.85471
1.76,0.194862,9.85468
1.77,0.195307,9.85466
1.78,0.195731,9.85464
1.79,0.196114,9.85463
1.8,0.19647,9.85462
1.81,0.196808,9.85461
1.82,0.197135,9.85461
1.83,0.197425,9.85461
1.84,0.197693,9.85461
1.85,0.197945,9.85461
1.86,0.198187,9.85462
1.87,0.198395,9.85463
1.88,0.198581,9.85465
1.89,0.198753,9.85466
1.9,0.198916,9.85468
1.91,0.199073,9.85469
1.92,0.199198,9.85471
1.93,0.199331,9.85473
1.94,0.19944,9.85476
1.95,0.199535,9.85478
1.96,0.199621,9.8548
1.97,0.1997,9.85483
1.98,0.199776,9.85485
1.99,0.199849,9.85488
2,0.199921,9.85491
2.01,0.199962,9.85494
2.02,0.200015,9.85496
2.03,0.200045,9.85499
2.04,0.200089,9.85502
2.05,0.200114,9.85505
2.06,0.200128,9.85508
2.07,0.200135,9.85511
2.08,0.200165,9.85514
2.09,0.200181,9.85517
2.1,0.200188,9.8552
2.11,0.200191,9.85523
2.12,0.200191,9.85526
2.13,0.200189,9.85529
2.14,0.200186,9.85532
2.15,0.200182,9.85536
2.16,0.200177,9.85539
2.17,0.200173,9.85542
2.18,0.200168,9.85545
2.19,0.200164,9.85548
2.2,0.200159,9.85551
2.21,0.200154,9.85554
2.22,0.200149,9.85557
2.23,0.200144,9.8556
2.24,0.200139,9.85563
2.25,0.200135,9.85566
2.26,0.20013,9.85569
2.27,0.200125,9.85572
2.28,0.200092,9.85575
2.29,0.200071,9.85578
2.3,0.200057,9.85581
2.31,0.200047,9.85584
2.32,0.200039,9.85587
2.33,0.200033,9.8559
2.34,0.2,9.85593
2.35,0.199979,9.85596
2.36,0.199965,9.85598
2.37,0.199955,9.85601
2.38,0.199948,9.85604
2.39,0.199943,9.85607
2.4,0.199938,9.8561
2.41,0.199935,9.85613
2.42,0.199903,9.85616
2.43,0.199884,9.85618
2.44,0.199871,9.85621
2.45,0.199863,9.85624
2.46,0.199857,9.85627
2.47,0.199852,9.85629
2.48,0.199849,9.85632
2.49,0.199846,9.85635
2.5,0.199843,9.85638
2.51,0.19984,9.8564
2.52,0.19981,9.85643
2.53,0.199792,9.85646
2.54,0.19978,9.85648
2.55,0.199773,9.85651
2.56,0.199768,9.85654
2.57,0.199764,9.85656
2.58,0.199762,9.85659
2.59,0.19976,9.85662
2.6,0.199758,9.85664
2.61,0.199756,9.85667
2.62,0.199755,9.8567
2.63,0.199753,9.85672
2.64,0.199752,9.85675
2.65,0.199751,9.85678
2.66,0.199749,9.8568
2.67,0.199748,9.85683
2.68,0.199747,9.85686
2.69,0.199718,9.85688
2.7,0.1997,9.85691
2.71,0.199689,9.85694
2.72,0.199683,9.85696
2.73,0.199651,9.85699
2.74,0.199604,9.85701
2.75,0.199577,9.85703
2.76,0.199561,9.85706
2.77,0.199552,9.85708
2.78,0.19952,9.8571
2.79,0.199501,9.85713
2.8,0.199491,9.85715
2.81,0.199486,9.85717
2.82,0.199484,9.8572
2.83,0.199484,9.85722
2.84,0.199484,9.85724
2.85,0.199486,9.85726
2.86,0.199488,9.85729
2.87,0.19949,9.85731
2.88,0.199492,9.85733
2.89,0.199494,9.85736
2.9,0.199496,9.85738
2.91,0.199498,9.8574
2.92,0.199501,9.85742
2.93,0.199503,9.85745
2.94,0.199505,9.85747
2.95,0.199508,9.85749
2.96,0.19951,9.85752
2.97,0.199512,9.85754
2.98,0.199515,9.85756
2.99,0.199517,9.85758
3,0.199519,9.85761
3.01,0.199522,9.85763
3.02,0.199524,9.85765
3.03,0.199526,9.85768
3.04,0.199528,9.8577
3.05,0.199531,9.85772
3.06,0.199533,9.85775
3.07,0.199535,9.85777
3.08,0.199538,9.85779
3.09,0.19954,9.85781
3.1,0.199542,9.85784
3.11,0.199544,9.85786
3.12,0.199547,9.85788
3.13,0.199549,9.85791
3.14,0.199551,9.85793
3.15,0.199553,9.85795
3.16,0.199556,9.85797
3.17,0.199558,9.858
3.18,0.199588,9.85802
3.19,0.199606,9.85804
3.2,0.199618,9.85807
3.21,0.199625,9.85809
3.22,0.19963,9.85812
3.23,0.199634,9.85814
3.24,0.199636,9.85816
3.25,0.199638,9.85819
3.26,0.19964,9.85821
3.27,0.199642,9.85824
3.28,0.199643,9.85826
3.29,0.199645,9.85828
3.3,0.199646,9.85831
3.31,0.199647,9.85833
3.32,0.199648,9.85835
3.33,0.19965,9.85838
3.34,0.199651,9.8584
3.35,0.199652,9.85843
3.36,0.199681,9.85845
3.37,0.199698,9.85848
3.38,0.199709,9.8585
3.39,0.199715,9.85853
3.4,0.199719,9.85855
3.41,0.199722,9.85857
3.42,0.199723,9.8586
3.43,0.199724,9.85862
3.44,0.199725,9.85865
3.45,0.199726,9.85867
3.46,0.199726,9.8587
3.47,0.199726,9.85872
3.48,0.199727,9.85875
3.49,0.199727,9.85877
3.5,0.199727,9.8588
3.51,0.199727,9.85882
3.52,0.199728,9.85885
3.53,0.199728,9.85887
3.54,0.199728,9.8589
3.55,0.199728,9.85892
3.56,0.199728,9.85895
3.57,0.199729,9.85897
3.58,0.199729,9.859
3.59,0.199729,9.85902
3.6,0.199729,9.85905
3.61,0.199729,9.85907
3.62,0.199729,9.8591
3.63,0.19973,9.85912
3.64,0.19973,9.85915
3.65,0.19973,9.85917
3.66,0.19973,9.85919
3.67,0.19973,9.85922
3.68,0.19973,9.85924
3.69,0.199731,9.85927
3.7,0.199731,9.85929
3.71,0.199731,9.85932
3.72,0.199731,9.85934
3.73,0.199731,9.85937
3.74,0.199731,9.85939
3.75,0.199731,9.85942
3.76,0.199731,9.85944
3.77,0.199731,9.85947
3.78,0.199731,9.85949
3.79,0.199732,9.85952
3.8,0.199732,9.85954
3.81,0.199732,9.85957
3.82,0.199732,9.85959
3.83,0.199732,9.85962
3.84,0.199732,9.85964
3.85,0.199732,9.85967
3.86,0.199732,9.85969
3.87,0.199732,9.85972
3.88,0.199732,9.85974
3.89,0.199732,9.85977
3.9,0.199732,9.85979
3.91,0.199732,9.85981
3.92,0.199732,9.85984
3.93,0.199732,9.85986
3.94,0.199732,9.85989
3.95,0.199732,9.85991
3.96,0.199732,9.85994
3.97,0.199732,9.85996
3.98,0.199732,9.85999
3.99,0.199732,9.86001
4,0.199732,9.86004
4.01,0.199732,9.86006
4.02,0.199732,9.86009
4.03,0.199732,9.86011
4.04,0.199732,9.86014
4.05,0.199732,9.86016
4.06,0.199732,9.86019
4.07,0.199732,9.86021
4.08,0.199732,9.86024
4.09,0.199732,9.86026
4.1,0.199732,9.86029
4.11,0.199732,9.86031
4.12,0.199732,9.86034
4.13,0.199732,9.86036
4.14,0.199732,9.86038
4.15,0.199732,9.86041
4.16,0.199732,9.86043
4.17,0.199732,9.86046
4.18,0.199732,9.86048
4.19,0.199732,9.86051
4.2,0.199731,9.86053
4.21,0.199731,9.86056
4.22,0.199731,9.86058
4.23,0.199731,9.86061
4.24,0.199731,9.86063
4.25,0.199731,9.86066
4.26,0.199731,9.86068
4.27,0.199731,9.86071
4.28,0.199731,9.86073
4.29,0.19973,9.86076
4.3,0.19973,9.86078
4.31,0.19973,9.86081
4.32,0.19973,9.86083
4.33,0.19973,9.86086
4.34,0.19973,9.86088
4.35,0.19973,9.86091
4.36,0.199729,9.86093
4.37,0.199729,9.86096
4.38,0.199729,9.86098
4.39,0.199729,9.861
4.4,0.199729,9.86103
4.41,0.199729,9.86105
4.42,0.199728,9.86108
4.43,0.199728,9.8611
4.44,0.199728,9.86113
4.45,0.199728,9.86115
4.46,0.199728,9.86118
4.47,0.199727,9.8612
4.48,0.199727,9.86123
4.49,0.199727,9.86125
4.5,0.199727,9.86128
4.51,0.199727,9.8613
4.52,0.199726,9.86133
4.53,0.199726,9.86135
4.54,0.199726,9.86138
4.55,0.199726,9.8614
4.56,0.199725,9.86143
4.57,0.199725,9.86145
4.58,0.199725,9.86148
4.59,0.199725,9.8615
4.6,0.199724,9.86153
4.61,0.199724,9.86155
4.62,0.199724,9.86158
4.63,0.199724,9.8616
4.64,0.199723,9.86162
4.65,0.199723,9.86165
4.66,0.199723,9.86167
4.67,0.199722,9.8617
4.68,0.199722,9.86172
4.69,0.199694,9.86175
4.7,0.199678,9.86177
4.71,0.199668,9.8618
4.72,0.199662,9.86182
4.73,0.199659,9.86184
4.74,0.199658,9.86187
4.75,0.199657,9.86189
4.76,0.199657,9.86191
4.77,0.199657,9.86194
4.78,0.199657,9.86196
4.79,0.199658,9.86199
4.8,0.199658,9.86201
4.81,0.199659,9.86203
4.82,0.199659,9.86206
4.83,0.19966,9.86208
4.84,0.19966,9.86211
4.85,0.199661,9.86213
4.86,0.199661,9.86215
4.87,0.199662,9.86218
4.88,0.199663,9.8622
4.89,0.199663,9.86222
4.9,0.199664,9.86225
4.91,0.199664,9.86227
4.92,0.199665,9.8623
4.93,0.199665,9.86232
4.94,0.199666,9.86234
4.95,0.199666,9.86237
4.96,0.199667,9.86239
4.97,0.199667,9.86242
4.98,0.199668,9.86244
4.99,0.199668,9.86246
5,0.199669,9.86249
5.01,0.19967,9.86251
5.02,0.19967,9.86253
5.03,0.199671,9.86256
5.04,0.199671,9.86258
5.05,0.199671,9.86261
5.06,0.199672,9.86263
5.07,0.199672,9.86265
5.08,0.199673,9.86268
5.09,0.199673,9.8627
5.1,0.199674,9.86273
5.11,0.199674,9.86275
5.12,0.199675,9.86277
5.13,0.199675,9.8628
5.14,0.199676,9.86282
5.15,0.199676,9.86284
5.16,0.199677,9.86287
5.17,0.199677,9.86289
5.18,0.199677,9.86292
5.19,0.199678,9.86294
5.2,0.199678,9.86296
5.21,0.199679,9.86299
5.22,0.199679,9.86301
5.23,0.19968,9.86304
5.24,0.19968,9.86306
5.25,0.19968,9.86308
5.26,0.199681,9.86311
5.27,0.199681,9.86313
5.28,0.199682,9.86315
5.29,0.199682,9.86318
5.3,0.199682,9.8632
5.31,0.199683,9.86323
5.32,0.199683,9.86325
5.33,0.199684,9.86327
5.34,0.199684,9.8633
5.35,0.199684,9.86332
5.36,0.199685,9.86335
5.37,0.199685,9.86337
5.38,0.199685,9.86339
5.39,0.199686,9.86342
5.4,0.199686,9.86344
5.41,0.199686,9.86346
5.42,0.199687,9.86349
5.43,0.199687,9.86351
5.44,0.199687,9.86354
5.45,0.199688,9.86356
5.46,0.199688,9.86358
5.47,0.199688,9.86361
5.48,0.199689,9.86363
5.49,0.199689,9.86366
5.5,0.199689,9.86368
5.51,0.19969,9.8637
5.52,0.19969,9.86373
5.53,0.19969,9.86375
5.54,0.19969,9.86377
5.55,0.199691,9.8638
5.56,0.199691,9.86382
5.57,0.199691,9.86385
5.58,0.199692,9.86387
5.59,0.199692,9.86389
5.6,0.199692,9.86392
5.61,0.199692,9.86394
5.62,0.199693,9.86397
5.63,0.199693,9.86399
5.64,0.199693,9.86401
5.65,0.199693,9.86404
5.66,0.199694,9.86406
5.67,0.199694,9.86408
5.68,0.199694,9.86411
5.69,0.199694,9.86413
5.7,0.199694,9.86416
5.71,0.199695,9.86418
5.72,0.199695,9.8642
5.73,0.199695,9.86423
5.74,0.199695,9.86425
5.75,0.199695,9.86427
5.76,0.199696,9.8643
5.77,0.199696,9.86432
5.78,0.199696,9.86435
5.79,0.199696,9.86437
5.8,0.199696,9.86439
5.81,0.199697,9.86442
5.82,0.199697,9.86444
5.83,0.199697,9.86447
5.84,0.199697,9.86449
5.85,0.199697,9.86451
5.86,0.199697,9.86454
5.87,0.199697,9.86456
5.88,0.199698,9.86458
5.89,0.199698,9.86461
5.9,0.199698,9.86463
5.91,0.199698,9.86466
5.92,0.199698,9.86468
5.93,0.199698,9.8647
5.94,0.199698,9.86473
5.95,0.199699,9.86475
5.96,0.199699,9.86478
5.97,0.199699,9.8648
5.98,0.199699,9.86482
5.99,0.199699,9.86485
6,0.199699,9.86487
6.01,0.199699,9.86489
6.02,0.199699,9.86492
6.03,0.199699,9.86494
6.04,0.199699,9.86497
6.05,0.199699,9.86499
6.06,0.1997,9.86501
6.07,0.1997,9.86504
6.08,0.1997,9.86506
6.09,0.1997,9.86509
6.1,0.1997,9.86511
6.11,0.1997,9.86513
6.12,0.1997,9.86516
6.13,0.1997,9.86518
6.14,0.1997,9.8652
6.15,0.1997,9.86523
6.16,0.1997,9.86525
6.17,0.1997,9.86528
6.18,0.1997,9.8653
6.19,0.1997,9.86532
6.2,0.1997,9.86535
6.21,0.1997,9.86537
6.22,0.1997,9.8654
6.23,0.1997,9.86542
6.24,0.1997,9.86544
6.25,0.1997,9.86547
6.26,0.1997,9.86549
6.27,0.1997,9.86551
6.28,0.1997,9.86554
6.29,0.1997,9.86556
6.3,0.1997,9.86559
6.31,0.1997,9.86561
6.32,0.1997,9.86563
6.33,0.1997,9.86566
6.34,0.1997,9.86568
6.35,0.1997,9.86571
6.36,0.1997,9.86573
6.37,0.1997,9.86575
6.38,0.1997,9.86578
6.39,0.199699,9.8658
6.4,0.199699,9.86582
6.41,0.199699,9.86585
6.42,0.199699,9.86587
6.43,0.199699,9.8659
6.44,0.199699,9.86592
6.45,0.199699,9.86594
6.46,0.199699,9.86597
6.47,0.199699,9.86599
6.48,0.199699,9.86602
6.49,0.199699,9.86604
6.5,0.199698,9.86606
6.51,0.199698,9.86609
6.52,0.199698,9.86611
6.53,0.199698,9.86613
6.54,0.199698,9.86616
6.55,0.199698,9.86618
6.56,0.199698,9.86621
6.57,0.199697,9.86623
6.58,0.199697,9.86625
6.59,0.199697,9.86628
6.6,0.199697,9.8663
6.61,0.199697,9.86633
6.62,0.199697,9.86635
6.63,0.199697,9.86637
6.64,0.199696,9.8664
6.65,0.199696,9.86642
6.66,0.199696,9.86644
6.67,0.199696,9.86647
6.68,0.199696,9.86649
6.69,0.199668,9.86652
6.7,0.199651,9.86654
6.71,0.199614,9.86656
6.72,0.199592,9.86658
6.73,0.19958,9.8666
6.74,0.199573,9.86663
6.75,0.19957,9.86665
6.76,0.199569,9.86667
6.77,0.199569,9.86669
6.78,0.199569,9.86671
6.79,0.19957,9.86674
6.8,0.199571,9.86676
6.81,0.199573,9.86678
6.82,0.199574,9.8668
6.83,0.199576,9.86682
6.84,0.199577,9.86685
6.85,0.199579,9.86687
6.86,0.199581,9.86689
6.87,0.199582,9.86691
6.88,0.199584,9.86693
6.89,0.199585,9.86695
6.9,0.199587,9.86698
6.91,0.199589,9.867
6.92,0.19959,9.86702
6.93,0.199592,9.86704
6.94,0.199593,9.86706
6.95,0.199595,9.86709
6.96,0.199597,9.86711
6.97,0.199598,9.86713
6.98,0.1996,9.86715
6.99,0.199601,9.86717
7,0.199603,9.8672
7.01,0.199604,9.86722
7.02,0.199606,9.86724
7.03,0.199608,9.86726
7.04,0.199609,9.86728
7.05,0.199611,9.86731
7.06,0.199612,9.86733
7.07,0.199614,9.86735
7.08,0.199615,9.86737
7.09,0.199617,9.86739
7.1,0.199618,9.86742
7.11,0.19962,9.86744
7.12,0.199621,9.86746
7.13,0.199623,9.86748
7.14,0.199624,9.8675
7.15,0.199626,9.86753
7.16,0.199628,9.86755
7.17,0.199629,9.86757
7.18,0.199631,9.86759
7.19,0.199632,9.86761
7.2,0.199634,9.86763
7.21,0.199635,9.86766
7.22,0.199636,9.86768
7.23,0.199638,9.8677
7.24,0.199639,9.86772
7.25,0.199641,9.86774
7.26,0.199642,9.86777
7.27,0.199644,9.86779
7.28,0.199645,9.86781
7.29,0.199647,9.86783
7.3,0.199648,9.86785
7.31,0.19965,9.86788
7.32,0.199651,9.8679
7.33,0.199653,9.86792
7.34,0.199682,9.86794
7.35,0.199699,9.86797
7.36,0.19971,9.86799
7.37,0.199717,9.86801
7.38,0.199721,9.86803
7.39,0.199724,9.86806
7.4,0.199726,9.86808
7.41,0.199727,9.8681
7.42,0.199728,9.86813
7.43,0.199728,9.86815
7.44,0.199729,9.86817
7.45,0.19973,9.86819
7.46,0.19973,9.86822
7.47,0.199731,9.86824
7.48,0.199731,9.86826
7.49,0.199732,9.86829
7.5,0.199732,9.86831
7.51,0.199732,9.86833
7.52,0.199733,9.86835
7.53,0.199733,9.86838
7.54,0.199734,9.8684
7.55,0.199734,9.86842
7.56,0.199735,9.86845
7.57,0.199735,9.86847
7.58,0.199735,9.86849
7.59,0.199736,9.86852
7.6,0.199736,9.86854
7.61,0.199737,9.86856
7.62,0.199737,9.86858
7.63,0.199737,9.86861
7.64,0.199738,9.86863
7.65,0.199738,9.86865
7.66,0.199738,9.86868
7.67,0.199739,9.8687
7.68,0.199739,9.86872
7.69,0.19974,9.86874
7.7,0.19974,9.86877
7.71,0.19974,9.86879
7.72,0.199741,9.86881
7.73,0.199741,9.86884
7.74,0.199741,9.86886
7.75,0.199742,9.86888
7.76,0.199742,9.8689
7.77,0.199742,9.86893
7.78,0.199743,9.86895
7.79,0.199743,9.86897
7.8,0.199743,9.869
7.81,0.199744,9.86902
7.82,0.199744,9.86904
7.83,0.199744,9.86906
7.84,0.199744,9.86909
7.85,0.199745,9.86911
7.86,0.199745,9.86913
7.87,0.199745,9.86916
7.88,0.199746,9.86918
7.89,0.199746,9.8692
7.9,0.199746,9.86922
7.91,0.199746,9.86925
7.92,0.199747,9.86927
7.93,0.199747,9.86929
7.94,0.199747,9.86932
7.95,0.199775,9.86934
7.96,0.199792,9.86936
7.97,0.199801,9.86939
7.98,0.199807,9.86941
7.99,0.19981,9.86944
8,0.199811,9.86946
8.01,0.199812,9.86948
8.02,0.199812,9.86951
8.03,0.199812,9.86953
8.04,0.199811,9.86955
8.05,0.199811,9.86958
8.06,0.19981,9.8696
8.07,0.199809,9.86963
8.08,0.199809,9.86965
8.09,0.199808,9.86967
8.1,0.199807,9.8697
8.11,0.199806,9.86972
8.12,0.199806,9.86975
8.13,0.199805,9.86977
8.14,0.199804,9.86979
8.15,0.199803,9.86982
8.16,0.199803,9.86984
8.17,0.199802,9.86986
8.18,0.199801,9.86989
8.19,0.1998,9.86991
8.2,0.199799,9.86994
8.21,0.199799,9.86996
8.22,0.199798,9.86998
8.23,0.199797,9.87001
8.24,0.199796,9.87003
8.25,0.199795,9.87006
8.26,0.199795,9.87008
8.27,0.199794,9.8701
8.28,0.199793,9.87013
8.29,0.199792,9.87015
8.3,0.199791,9.87017
8.31,0.19979,9.8702
8.32,0.19979,9.87022
8.33,0.199789,9.87025
8.34,0.199788,9.87027
8.35,0.199787,9.87029
8.36,0.199786,9.87032
8.37,0.199785,9.87034
8.38,0.199784,9.87037
8.39,0.199784,9.87039
8.4,0.199783,9.87041
8.41,0.199782,9.87044
8.42,0.199781,9.87046
8.43,0.19978,9.87048
8.44,0.199779,9.87051
8.45,0.199778,9.87053
8.46,0.199777,9.87056
8.47,0.199776,9.87058
8.48,0.199776,9.8706
8.49,0.199775,9.87063
8.5,0.199774,9.87065
8.51,0.199773,9.87068
8.52,0.199772,9.8707
8.53,0.199771,9.87072
8.54,0.19977,9.87075
8.55,0.199769,9.87077
8.56,0.199768,9.87079
8.57,0.199767,9.87082
8.58,0.199766,9.87084
8.59,0.199765,9.87087
8.6,0.199764,9.87089
8.61,0.199763,9.87091
8.62,0.199762,9.87094
8.63,0.199761,9.87096
8.64,0.19976,9.87099
8.65,0.199759,9.87101
8.66,0.199759,9.87103
8.67,0.199758,9.87106
8.68,0.199757,9.87108
8.69,0.199756,9.8711
8.7,0.199755,9.87113
8.71,0.199754,9.87115
8.72,0.199753,9.87118
8.73,0.199751,9.8712
8.74,0.19975,9.87122
8.75,0.199749,9.87125
8.76,0.199748,9.87127
8.77,0.19972,9.87129
8.78,0.199675,9.87132
8.79,0.199648,9.87134
8.8,0.199605,9.87136
8.81,0.19958,9.87138
8.82,0.199565,9.8714
8.83,0.199557,9.87142
8.84,0.199553,9.87144
8.85,0.199524,9.87146
8.86,0.199507,9.87148
8.87,0.199498,9.8715
8.88,0.199494,9.87152
8.89,0.199493,9.87154
8.9,0.199493,9.87156
8.91,0.199494,9.87158
8.92,0.199496,9.8716
8.93,0.199498,9.87162
8.94,0.1995,9.87164
8.95,0.199503,9.87166
8.96,0.199505,9.87168
8.97,0.199508,9.8717
8.98,0.19951,9.87172
8.99,0.199513,9.87174
9,0.199516,9.87176
9.01,0.199518,9.87178
9.02,0.199521,9.8718
9.03,0.199524,9.87182
9.04,0.199526,9.87184
9.05,0.199529,9.87186
9.06,0.199532,9.87188
9.07,0.199534,9.8719
9.08,0.199537,9.87192
9.09,0.199539,9.87194
9.1,0.199542,9.87196
9.11,0.199545,9.87198
9.12,0.199547,9.872
9.13,0.19955,9.87202
9.14,0.199553,9.87204
9.15,0.199555,9.87206
9.16,0.199558,9.87208
9.17,0.199588,9.8721
9.18,0.199607,9.87213
9.19,0.199619,9.87215
9.2,0.199627,9.87217
9.21,0.199632,9.87219
9.22,0.199636,9.87221
9.23,0.199639,9.87223
9.24,0.199641,9.87225
9.25,0.199643,9.87227
9.26,0.199645,9.87229
9.27,0.199647,9.87231
9.28,0.199649,9.87234
9.29,0.19965,9.87236
9.3,0.199652,9.87238
9.31,0.199681,9.8724
